"Time (s)","Pressure (hPa)"
-5.972970000E-1,8.386049652E2
4.032780000E-1,8.386694336E2
1.403853000E0,8.387339020E2
2.404427000E0,8.389161682E2
3.405003000E0,8.391478729E2
4.405580000E0,8.394090271E2
4.956399000E0,8.396753693E2
5.956973000E0,8.397980499E2
6.957547000E0,8.400679016E2
7.958124000E0,8.403348541E2
8.958698000E0,8.406001282E2
9.959274000E0,8.408641052E2
1.095985400E1,8.411259460E2
1.196043300E1,8.413845825E2
1.296100500E1,8.416362762E2
1.396158600E1,8.418799591E2
1.496215700E1,8.421266937E2
1.596273100E1,8.423688507E2
1.696330700E1,8.426132202E2
1.796388300E1,8.428559113E2
1.896445800E1,8.431121063E2
1.996503600E1,8.433612823E2
2.096561700E1,8.436196136E2
2.196619100E1,8.438655090E2
2.296676500E1,8.441104126E2
2.396734300E1,8.443490601E2
2.496791700E1,8.445934296E2
2.596849400E1,8.448367310E2
2.696907400E1,8.450968170E2
2.796964500E1,8.453599548E2
2.897022100E1,8.456174469E2
2.997079600E1,8.458670807E2
3.097137100E1,8.461141205E2
3.197195000E1,8.463639832E2
3.297252900E1,8.466197968E2
3.397310500E1,8.468813324E2
3.497367900E1,8.471489716E2
3.597425400E1,8.474149323E2
3.697483400E1,8.476736450E2
3.797583900E1,8.479301453E2
3.897598600E1,8.481873322E2
3.997655900E1,8.484407043E2
4.097713400E1,8.486963654E2
4.197771600E1,8.489480591E2
4.297828900E1,8.491966248E2
4.397886800E1,8.494367218E2
4.497944200E1,8.496871185E2
4.598001900E1,8.499372101E2
4.698059300E1,8.501779175E2
4.798116700E1,8.504187012E2
4.898174500E1,8.506616211E2
4.998232200E1,8.509006500E2
5.098289800E1,8.511457062E2
5.198347400E1,8.514026642E2
5.298404900E1,8.516609955E2
5.398462600E1,8.519204712E2
5.498520200E1,8.521755219E2
5.598578100E1,8.524320221E2
5.698643600E1,8.526905060E2
5.798693300E1,8.529545593E2
5.898750700E1,8.532175446E2
5.998808500E1,8.534786987E2
6.098866000E1,8.537319183E2
6.198923900E1,8.539806366E2
6.298981200E1,8.542279816E2
6.399038800E1,8.544790649E2
6.499096600E1,8.547222900E2
6.599153900E1,8.549629211E2
6.699211600E1,8.552047729E2
6.799269400E1,8.554551697E2
6.899327500E1,8.557005310E2
6.999384800E1,8.559581757E2
7.099442300E1,8.562222290E2
7.199500000E1,8.564813995E2
7.299557800E1,8.567298889E2
7.399615200E1,8.569805908E2
7.499672500E1,8.572267151E2
7.599774100E1,8.574769592E2
7.699788100E1,8.577310944E2
7.799845500E1,8.579845428E2
7.899902900E1,8.582353210E2
7.999960800E1,8.584938812E2
8.100018300E1,8.587497711E2
8.200075800E1,8.590097809E2
8.300133400E1,8.592707062E2
8.400191400E1,8.595352936E2
8.500248800E1,8.597899628E2
8.600306500E1,8.600381470E2
8.700387600E1,8.602769470E2
8.800421600E1,8.605254364E2
8.900479300E1,8.607725525E2
9.000536900E1,8.610256195E2
9.100594500E1,8.612777710E2
9.200652900E1,8.615409088E2
9.300709900E1,8.618006134E2
9.400767500E1,8.620649719E2
9.500825000E1,8.623233032E2
9.600882500E1,8.625836182E2
9.700940300E1,8.628421783E2
9.801029300E1,8.630980682E2
9.901055300E1,8.633468628E2
1.000111280E2,8.636045837E2
1.010117060E2,8.638650513E2
1.020122810E2,8.641135406E2
1.030128580E2,8.643522644E2
1.040134380E2,8.645941162E2
1.050140110E2,8.648390961E2
1.060145880E2,8.650912476E2
1.070151660E2,8.653417206E2
1.080157400E2,8.655991364E2
1.090167090E2,8.658581543E2
1.100168930E2,8.661128998E2
1.110174680E2,8.663588715E2
1.120180450E2,8.666214752E2
1.130186200E2,8.668864441E2
1.140191990E2,8.671424866E2
1.150197760E2,8.673948669E2
1.160203500E2,8.676458740E2
1.170209280E2,8.678997803E2
1.180215010E2,8.681588745E2
1.190220770E2,8.684272766E2
1.200228500E2,8.686971283E2
1.210232310E2,8.689621735E2
1.220238090E2,8.692167664E2
1.230243850E2,8.694648743E2
1.240249580E2,8.697148132E2
1.250255330E2,8.699641418E2
1.260261090E2,8.702101135E2
1.270266850E2,8.704585266E2
1.280272640E2,8.707073212E2
1.290278390E2,8.709580994E2
1.300284160E2,8.712152100E2
1.310289940E2,8.714850616E2
1.320295700E2,8.717527008E2
1.330301450E2,8.720193481E2
1.340307190E2,8.722755432E2
1.350312950E2,8.725293732E2
1.360318720E2,8.727821350E2
1.370324510E2,8.730385590E2
1.380330250E2,8.732965851E2
1.390336010E2,8.735580444E2
1.400341780E2,8.738169861E2
1.410347520E2,8.740814209E2
1.420353330E2,8.743464661E2
1.430359070E2,8.746102142E2
1.440364840E2,8.748699951E2
1.450370580E2,8.751295471E2
1.460376320E2,8.753791809E2
1.470382080E2,8.756250000E2
1.480387880E2,8.758750153E2
1.490393630E2,8.761312866E2
1.500399460E2,8.763850403E2
1.510405180E2,8.766369629E2
1.520410940E2,8.768848419E2
1.530416700E2,8.771337128E2
1.540422430E2,8.773878479E2
1.550428210E2,8.776473236E2
1.560438550E2,8.779071045E2
1.570439720E2,8.781699371E2
1.580445490E2,8.784313202E2
1.590451230E2,8.786860657E2
1.600457000E2,8.789432526E2
1.610462770E2,8.791883850E2
1.620468530E2,8.794339752E2
1.630474280E2,8.796837616E2
1.640480060E2,8.799351501E2
1.650485820E2,8.801934052E2
1.660491600E2,8.804626465E2
1.670497350E2,8.807392883E2
1.680503120E2,8.810122681E2
1.690508840E2,8.812803650E2
1.700514630E2,8.815343475E2
1.710520390E2,8.817896271E2
1.720526130E2,8.820414734E2
1.730531890E2,8.822948456E2
1.740537640E2,8.825491333E2
1.750543400E2,8.828025818E2
1.760549210E2,8.830574036E2
1.770554980E2,8.833185577E2
1.780560710E2,8.835774994E2
1.790566470E2,8.838363647E2
1.800572300E2,8.840998840E2
1.810578010E2,8.843618774E2
1.820583810E2,8.846154785E2
1.830589500E2,8.848704529E2
1.840595290E2,8.851312256E2
1.850601070E2,8.853930664E2
1.860606810E2,8.856578827E2
1.870612560E2,8.859155273E2
1.880618350E2,8.861696625E2
1.890624090E2,8.864303589E2
1.900629870E2,8.866872406E2
1.910635600E2,8.869493103E2
1.920643410E2,8.872173309E2
1.930647150E2,8.874893951E2
1.940652970E2,8.877487183E2
1.950658670E2,8.880071259E2
1.960664450E2,8.882538605E2
1.970670200E2,8.884997559E2
1.980675960E2,8.887444305E2
1.990681740E2,8.889907837E2
2.000687480E2,8.892376709E2
2.010693290E2,8.894927979E2
2.020699020E2,8.897533417E2
2.030704800E2,8.900185394E2
2.040710520E2,8.902924347E2
2.050716300E2,8.905629730E2
2.060722070E2,8.908287048E2
2.070727820E2,8.910897827E2
2.080733630E2,8.913449860E2
2.090739350E2,8.915932465E2
2.100745130E2,8.918431091E2
2.110750870E2,8.920941162E2
2.120756620E2,8.923452759E2
2.130762390E2,8.926010895E2
2.140768180E2,8.928620148E2
2.150773900E2,8.931208801E2
2.160779680E2,8.933817291E2
2.170788270E2,8.936425781E2
2.180791230E2,8.939022827E2
2.190796970E2,8.941487122E2
2.200802730E2,8.944042969E2
2.210808470E2,8.946641541E2
2.220814300E2,8.949269867E2
2.230820030E2,8.951900482E2
2.240825800E2,8.954538727E2
2.250831550E2,8.957154083E2
2.260837310E2,8.959772491E2
2.270843010E2,8.962421417E2
2.280848850E2,8.964994812E2
2.290854590E2,8.967588043E2
2.300860350E2,8.970162201E2
2.310866120E2,8.972689056E2
2.320871890E2,8.975125122E2
2.330877660E2,8.977619171E2
2.340883410E2,8.980197906E2
2.350889170E2,8.982815552E2
2.360894940E2,8.985440063E2
2.370900710E2,8.988048553E2
2.380906470E2,8.990749359E2
2.390912230E2,8.993403625E2
2.400917970E2,8.996070862E2
2.410923740E2,8.998730469E2
2.420930530E2,9.001473999E2
2.430935280E2,9.004010773E2
2.440941010E2,9.006521606E2
2.450946790E2,9.009072876E2
2.460952560E2,9.011561584E2
2.470958300E2,9.013781738E2
2.480964090E2,9.016053009E2
2.490969840E2,9.018437958E2
2.500975610E2,9.020828247E2
2.510981360E2,9.023252869E2
2.520987120E2,9.026026154E2
2.530996270E2,9.028946686E2
2.540998680E2,9.031805420E2
2.551004400E2,9.034573364E2
2.561010160E2,9.037281036E2
2.571015950E2,9.039923859E2
2.581021720E2,9.042494202E2
2.591027460E2,9.045051575E2
2.601033250E2,9.047671509E2
2.611038980E2,9.050329590E2
2.621044780E2,9.053032684E2
2.631050520E2,9.055685425E2
2.641056280E2,9.058318329E2
2.651062050E2,9.061017609E2
2.661067780E2,9.063666534E2
2.671073570E2,9.066267395E2
2.681079330E2,9.068807220E2
2.691085080E2,9.071419525E2
2.701090870E2,9.073950195E2
2.711100080E2,9.076555634E2
2.721102370E2,9.079119873E2
2.731108130E2,9.081790924E2
2.741113910E2,9.084381866E2
2.751119710E2,9.087042999E2
2.761125420E2,9.089472198E2
2.771131180E2,9.092014313E2
2.781136950E2,9.094546509E2
2.791142720E2,9.097197723E2
2.801148470E2,9.099775696E2
2.811154230E2,9.102507782E2
2.821160010E2,9.105246735E2
2.831165750E2,9.107991028E2
2.841171540E2,9.110648346E2
2.851181000E2,9.113323212E2
2.861183070E2,9.115970612E2
2.871188810E2,9.118722534E2
2.881194570E2,9.121431732E2
2.891200350E2,9.124271393E2
2.901206110E2,9.127059174E2
2.911211910E2,9.129890442E2
2.921217650E2,9.132627869E2
2.931223400E2,9.135320282E2
2.941229190E2,9.137983704E2
2.951236830E2,9.140678406E2
2.961240710E2,9.143322754E2
2.971246460E2,9.145919037E2
2.981252220E2,9.148578644E2
2.991258000E2,9.151305389E2
3.001263770E2,9.153918457E2
3.011269540E2,9.156610870E2
3.021275260E2,9.159407043E2
3.031281050E2,9.162142944E2
3.041286820E2,9.164746857E2
3.051292570E2,9.167508698E2
3.061298330E2,9.170325470E2
3.071304070E2,9.173096466E2
3.081309850E2,9.175846100E2
3.091315630E2,9.178641510E2
3.101321370E2,9.181347656E2
3.111327140E2,9.184065247E2
3.121336730E2,9.186738586E2
3.131338650E2,9.189475250E2
3.141344430E2,9.192208099E2
3.151350170E2,9.195010376E2
3.161355950E2,9.197669983E2
3.171361730E2,9.200289917E2
3.181367490E2,9.202956390E2
3.191373240E2,9.205672455E2
3.201378980E2,9.208363342E2
3.211384810E2,9.210978699E2
3.221392370E2,9.213639832E2
3.231396300E2,9.216273499E2
3.241402100E2,9.218865967E2
3.251407840E2,9.221492767E2
3.261413590E2,9.224131775E2
3.271419330E2,9.226755524E2
3.281425100E2,9.229272461E2
3.291430860E2,9.231876373E2
3.301436610E2,9.234453583E2
3.311442390E2,9.237238312E2
3.321450810E2,9.240094757E2
3.331453900E2,9.243048096E2
3.341459690E2,9.245820618E2
3.351465440E2,9.248619080E2
3.361471210E2,9.251296234E2
3.371476980E2,9.254033661E2
3.381482740E2,9.256792450E2
3.391488510E2,9.259605408E2
3.401494280E2,9.262364960E2
3.411500030E2,9.265077209E2
3.421505800E2,9.267752075E2
3.431511520E2,9.270455933E2
3.441517300E2,9.273129272E2
3.451523090E2,9.275833893E2
3.461528810E2,9.278485107E2
3.471534620E2,9.281027985E2
3.481540340E2,9.283573151E2
3.491546100E2,9.286247253E2
3.501551880E2,9.289012909E2
3.511557630E2,9.291842651E2
3.521563420E2,9.294770050E2
3.531569160E2,9.297622681E2
3.541574920E2,9.300424194E2
3.551580720E2,9.303176117E2
3.561586500E2,9.305907440E2
3.571592220E2,9.308650208E2
3.581599630E2,9.311408997E2
3.591603770E2,9.314202881E2
3.601609550E2,9.316957855E2
3.611615290E2,9.319793701E2
3.621621040E2,9.322689056E2
3.631626810E2,9.325607300E2
3.641632540E2,9.328382874E2
3.651638340E2,9.331140900E2
3.661644080E2,9.333729553E2
3.671649860E2,9.336327362E2
3.681655630E2,9.338937378E2
3.691661430E2,9.341651154E2
3.701667160E2,9.344369507E2
3.711673220E2,9.347198486E2
3.721678670E2,9.350035858E2
3.731684440E2,9.352960968E2
3.741690190E2,9.355852509E2
3.751695950E2,9.358721161E2
3.761701720E2,9.361614990E2
3.771707520E2,9.364453888E2
3.781713260E2,9.367250061E2
3.791719010E2,9.370027924E2
3.801724770E2,9.372839355E2
3.811730510E2,9.375637054E2
3.821736300E2,9.378490448E2
3.831742060E2,9.381342316E2
3.841747920E2,9.384061432E2
3.851753600E2,9.386799622E2
3.861759360E2,9.389559937E2
3.871765130E2,9.392301941E2
3.881770870E2,9.394992065E2
3.891776650E2,9.397856140E2
3.901782420E2,9.400701904E2
3.911788170E2,9.403527832E2
3.921793950E2,9.406306458E2
3.931799700E2,9.409097290E2
3.941808390E2,9.411837006E2
3.951811220E2,9.414528656E2
3.961816980E2,9.417251587E2
3.971822760E2,9.420095825E2
3.981828520E2,9.422956085E2
3.991834280E2,9.425814819E2
4.001840020E2,9.428739166E2
4.011845770E2,9.431679535E2
4.021851520E2,9.434557343E2
4.031857290E2,9.437293243E2
4.041863070E2,9.439973450E2
4.051868860E2,9.442623138E2
4.061874590E2,9.445381165E2
4.071880370E2,9.448093414E2
4.081886140E2,9.450950623E2
4.091891880E2,9.453926086E2
4.101897680E2,9.456935883E2
4.111903450E2,9.459831238E2
4.121909150E2,9.462682343E2
4.131914930E2,9.465579224E2
4.141920710E2,9.468453217E2
4.151926470E2,9.471244812E2
4.161932210E2,9.473836517E2
4.171938000E2,9.476362610E2
4.181943760E2,9.478950500E2
4.191949500E2,9.481526184E2
4.201955280E2,9.484279633E2
4.211961040E2,9.487232208E2
4.221966790E2,9.490263367E2
4.231972580E2,9.493181610E2
4.241978340E2,9.496049500E2
4.251984100E2,9.498757935E2
4.261989860E2,9.501492310E2
4.271995620E2,9.504181671E2
4.282001400E2,9.506893158E2
4.292007160E2,9.509636688E2
4.302012930E2,9.512474823E2
4.312018720E2,9.515238953E2
4.322024420E2,9.518147278E2
4.332030200E2,9.520996094E2
4.342035960E2,9.523866272E2
4.352041750E2,9.526495361E2
4.362047500E2,9.529135895E2
4.372053340E2,9.531769562E2
4.382059040E2,9.534474182E2
4.392064800E2,9.537196350E2
4.402070550E2,9.539993286E2
4.412076320E2,9.542879486E2
4.422082090E2,9.545656586E2
4.432087840E2,9.548464203E2
4.442093620E2,9.551294708E2
4.452099370E2,9.554175568E2
4.462105120E2,9.556995392E2
4.472110890E2,9.559826660E2
4.482116650E2,9.562622833E2
4.492122420E2,9.565402222E2
4.502128200E2,9.568165588E2
4.512133930E2,9.570951080E2
4.522139710E2,9.573719788E2
4.532145460E2,9.576515961E2
4.542151220E2,9.579280090E2
4.552157050E2,9.581990814E2
4.562162770E2,9.584761810E2
4.572168530E2,9.587511444E2
4.582174260E2,9.590262604E2
4.592180050E2,9.592996216E2
4.602185830E2,9.595794678E2
4.612191600E2,9.598603821E2
4.622197330E2,9.601390839E2
4.632203090E2,9.604213715E2
4.642208860E2,9.607012177E2
4.652214660E2,9.609848785E2
4.662220410E2,9.612602234E2
4.672226170E2,9.615498352E2
4.682231930E2,9.618469238E2
4.692237690E2,9.621363831E2
4.702247490E2,9.624186707E2
4.712249190E2,9.627011108E2
4.722254950E2,9.629785919E2
4.732260730E2,9.632435608E2
4.742266490E2,9.635076904E2
4.752272270E2,9.637747192E2
4.762278020E2,9.640392303E2
4.772283780E2,9.643027496E2
4.782289540E2,9.645651245E2
4.792295310E2,9.648377991E2
4.802301060E2,9.651165009E2
4.812306820E2,9.653998566E2
4.822312620E2,9.656753540E2
4.832319160E2,9.659549713E2
4.842324170E2,9.662245178E2
4.852329890E2,9.664953613E2
4.862335660E2,9.667651367E2
4.872341420E2,9.670379639E2
4.882347190E2,9.673051453E2
4.892352940E2,9.675755310E2
4.902358750E2,9.678448486E2
4.912364470E2,9.681089783E2
4.922370260E2,9.683811951E2
4.932376000E2,9.686586761E2
4.942381760E2,9.689395905E2
4.952387530E2,9.692176056E2
4.962393300E2,9.694882965E2
4.972399060E2,9.697595215E2
4.982404820E2,9.700333405E2
4.992410590E2,9.703057861E2
5.002416360E2,9.705773163E2
5.012422110E2,9.708583069E2
5.022427850E2,9.711370850E2
5.032433620E2,9.714057922E2
5.042439370E2,9.716844177E2
5.052445130E2,9.719623566E2
5.062453910E2,9.722382355E2
5.072456660E2,9.725086212E2
5.082462450E2,9.727809143E2
5.092468240E2,9.730503082E2
5.102473990E2,9.733220673E2
5.112479700E2,9.735933685E2
5.122485520E2,9.738665771E2
5.132491270E2,9.741405487E2
5.142497030E2,9.744102478E2
5.152502800E2,9.746743774E2
5.162508600E2,9.749486542E2
5.172514330E2,9.752275085E2
5.182520090E2,9.755051422E2
5.192525870E2,9.757798004E2
5.202531630E2,9.760549927E2
5.212537360E2,9.763245392E2
5.222543130E2,9.765928650E2
5.232548880E2,9.768578339E2
5.242554660E2,9.771218872E2
5.252560420E2,9.773845673E2
5.262566180E2,9.776516724E2
5.272571940E2,9.779143524E2
5.282577710E2,9.781797791E2
5.292583480E2,9.784537506E2
5.302589240E2,9.787280273E2
5.312595010E2,9.789942169E2
5.322600770E2,9.792530823E2
5.332606590E2,9.795127869E2
5.342612300E2,9.797702789E2
5.352620430E2,9.800304413E2
5.362623840E2,9.802951813E2
5.372629590E2,9.805588531E2
5.382635360E2,9.808220673E2
5.392641140E2,9.810817719E2
5.402646900E2,9.813375854E2
5.412652650E2,9.815937042E2
5.422658380E2,9.818599701E2
5.432664160E2,9.821263123E2
5.442669920E2,9.823878479E2
5.452675670E2,9.826502991E2
5.462681450E2,9.829095459E2
5.472687200E2,9.831633759E2
5.482692970E2,9.834167480E2
5.492698760E2,9.836687469E2
5.502704520E2,9.839221954E2
5.512710720E2,9.841722870E2
5.522716020E2,9.844280243E2
5.532721770E2,9.846791840E2
5.542727540E2,9.849335480E2
5.552733320E2,9.851927185E2
5.562739090E2,9.854523468E2
5.572744900E2,9.857040405E2
5.582750630E2,9.859526825E2
5.592756370E2,9.862035370E2
5.602762130E2,9.864508057E2
5.612767880E2,9.867023468E2
5.622773680E2,9.869514465E2
5.632779410E2,9.872003174E2
5.642785300E2,9.874436188E2
5.652790980E2,9.876846313E2
5.662796710E2,9.879254913E2
5.672802470E2,9.881661987E2
5.682808260E2,9.884162903E2
5.692814030E2,9.886732483E2
5.702819790E2,9.889268494E2
5.712825520E2,9.891776276E2
5.722831280E2,9.894253540E2
5.732837030E2,9.896650696E2
5.742842840E2,9.899059296E2
5.752848580E2,9.901486969E2
5.762854330E2,9.903899384E2
5.772860130E2,9.906324768E2
5.782865880E2,9.908775330E2
5.792871640E2,9.911228943E2
5.802877390E2,9.913674164E2
5.812883160E2,9.916054535E2
5.822888930E2,9.918399048E2
5.832894700E2,9.920707703E2
5.842900460E2,9.922845459E2
5.852906250E2,9.924824524E2
5.862911980E2,9.926725006E2
5.872917740E2,9.928521729E2
5.882923500E2,9.930162048E2
5.892929280E2,9.931723022E2
5.902935040E2,9.933160400E2
5.912940820E2,9.934527588E2
5.922946570E2,9.935819244E2
5.932956520E2,9.937023163E2
5.942958080E2,9.938155365E2
5.952963830E2,9.939245605E2
5.962969600E2,9.940226746E2
5.972975360E2,9.941095734E2
5.982981150E2,9.941828156E2
5.992986910E2,9.942408752E2
6.002992650E2,9.942939758E2
6.012998440E2,9.943383789E2
6.023004200E2,9.943798065E2
6.033009970E2,9.944215393E2
6.043015740E2,9.944637299E2
6.053021470E2,9.945034790E2
6.063027240E2,9.945420074E2
6.073033000E2,9.945777893E2
6.083038800E2,9.946112061E2
6.093044510E2,9.946447754E2
6.103050300E2,9.946720123E2
6.113056050E2,9.946994019E2
6.123061830E2,9.947271729E2
6.133067580E2,9.947512054E2
6.143073370E2,9.947752380E2
6.153079130E2,9.948014069E2
6.163084920E2,9.948235321E2
6.173090660E2,9.948436737E2
6.183096380E2,9.948678589E2
6.193102150E2,9.948881531E2
6.203107930E2,9.949089813E2
6.213113700E2,9.949304962E2
6.223119500E2,9.949494934E2
6.233125220E2,9.949636841E2
6.243130980E2,9.949777985E2
6.253136750E2,9.949907684E2
6.263142520E2,9.949977875E2
6.273148270E2,9.950061798E2
6.283154040E2,9.950171661E2
6.293160920E2,9.950260925E2
6.303165550E2,9.950337219E2
6.313171360E2,9.950446320E2
6.323177080E2,9.950569153E2